T/s,theta 1 velocity/rad/s, theta 2  velocity/rad/s
0,0,0
0.0001,0,0
0.0002,0,0
0.0003,0,0
0.0004,-3.84E-06,5.03E-06
0.0005,-1.30E-05,1.72E-05
0.0006,-2.75E-05,3.69E-05
0.0007,-4.63E-05,6.29E-05
0.0008,-6.72E-05,9.31E-05
0.0009,-8.80E-05,0.000124905
0.001,-0.000106271,0.000155485
0.0011,-0.000119725,0.00018237
0.0012,-0.00012671,0.000203615
0.0013,-0.000126199,0.000218024
0.0014,-0.000117902,0.000225232
0.0015,-0.000102247,0.000225692
0.0016,-8.03E-05,0.000220567
0.0017,-5.36E-05,0.000211562
0.0018,-2.39E-05,0.000200698
0.0019,4.47E-06,0.000193238
0.002,1.04E-05,0.000216579
0.0021,-3.96E-05,0.000315366
0.0022,-0.000180544,0.000537973
0.0023,-0.000440975,0.0009267
0.0024,-0.00083732,0.001510866
0.0025,-0.001370785,0.002302887
0.0026,-0.002024241,0.003294075
0.0027,-0.002749038,0.004436847
0.0028,-0.00347225,0.005652797
0.0029,-0.004111701,0.006850793
0.003,-0.004588637,0.007942085
0.0031,-0.004858208,0.00887576
0.0032,-0.005032575,0.009781033
0.0033,-0.005240542,0.010808468
0.0034,-0.005557475,0.012049744
0.0035,-0.006007715,0.013539739
0.0036,-0.006574037,0.015266823
0.0037,-0.007189101,0.017162517
0.0038,-0.007726968,0.019089101
0.0039,-0.008041804,0.020883327
0.004,-0.008017099,0.022413197
0.0041,-0.007573793,0.023587911
0.0042,-0.006803032,0.024511178
0.0043,-0.005926738,0.025437113
0.0044,-0.005122259,0.026571129
0.0045,-0.004491012,0.02803374
0.0046,-0.004069587,0.029872593
0.0047,-0.003835702,0.032068799
0.0048,-0.003593178,0.034404012
0.0049,-0.003065244,0.036565861
0.005,-0.002029203,0.03830124
0.0051,-0.00036427,0.039471285
0.0052,0.001829895,0.040188635
0.0053,0.004252791,0.040795702
0.0054,0.0065073,0.04174584
0.0055,0.008305064,0.04336991
0.0056,0.009512741,0.045823365
0.0057,0.010132525,0.049107866
0.0058,0.010404884,0.052952304
0.0059,0.010764872,0.056862256
0.006,0.011736463,0.06024084
0.0061,0.013773844,0.062570051
0.0062,0.016964326,0.063750388
0.0063,0.021038801,0.064089055
0.0064,0.025510758,0.064141244
0.0065,0.029794752,0.064574864
0.0066,0.033331132,0.06602832
0.0067,0.035781022,0.068889127
0.0068,0.037099423,0.073210043
0.0069,0.037586546,0.078648938
0.007,0.037801405,0.084567179
0.0071,0.038418479,0.090193609
0.0072,0.040137015,0.094728053
0.0073,0.043427413,0.097632527
0.0074,0.048475863,0.098694313
0.0075,0.055096228,0.09812499
0.0076,0.062724745,0.096566906
0.0077,0.070594148,0.094894393
0.0078,0.077834287,0.094098417
0.0079,0.083746343,0.094974949
0.008,0.087907012,0.098006099
0.0081,0.090299021,0.103209423
0.0082,0.091273679,0.110180351
0.0083,0.091432471,0.1182277
0.0084,0.091566797,0.126443473
0.0085,0.092449852,0.133941077
0.0086,0.094680879,0.140033666
0.0087,0.098633246,0.144293277
0.0088,0.104427977,0.146580577
0.0089,0.111835298,0.147155789
0.009,0.12033618,0.146608188
0.0091,0.129114745,0.145865125
0.0092,0.137327113,0.145886028
0.0093,0.14430561,0.147430141
0.0094,0.149562579,0.151051371
0.0095,0.15277679,0.157113007
0.0096,0.153873491,0.165696806
0.0097,0.153196275,0.176406094
0.0098,0.151520333,0.188349678
0.0099,0.149937358,0.200274244
0.01,0.149552169,0.210911742
0.0101,0.151318393,0.219167201
0.0102,0.155930902,0.224241507
0.0103,0.163740006,0.225729156
0.0104,0.174617543,0.223769859
0.0105,0.18798398,0.219017686
0.0106,0.202822867,0.212624832
0.0107,0.217838736,0.206063477
0.0108,0.231687671,0.200861937
0.0109,0.243167626,0.198387013
0.011,0.251362817,0.199678827
0.0111,0.255757764,0.205320215
0.0112,0.256402244,0.215246979
0.0113,0.253865912,0.228799642
0.0114,0.249162777,0.244809516
0.0115,0.243627766,0.2617408
0.0116,0.238732623,0.277903063
0.0117,0.235861043,0.291708023
0.0118,0.23613876,0.301863226
0.0119,0.240312518,0.307510017
0.012,0.248686304,0.308296185
0.0121,0.261114288,0.304383868
0.0122,0.277044893,0.296399089
0.0123,0.295471966,0.285486328
0.0124,0.314929147,0.273315854
0.0125,0.333709736,0.261832821
0.0126,0.350147261,0.25293662
0.0127,0.362838923,0.248225515
0.0128,0.370807368,0.248811773
0.0129,0.373593322,0.2552158
0.013,0.371278576,0.26733986
0.0131,0.364445107,0.284514775
0.0132,0.354174232,0.305500047
0.0133,0.342040782,0.328491524
0.0134,0.329938319,0.351321227
0.0135,0.31978181,0.371797184
0.0136,0.313245942,0.388002304
0.0137,0.31156866,0.398518771
0.0138,0.315429079,0.402567483
0.0139,0.324902627,0.400059263
0.014,0.339448562,0.391608612
0.0141,0.357902288,0.378541212
0.0142,0.378541331,0.362817717
0.0143,0.399329949,0.346757197
0.0144,0.418211647,0.332703693
0.0145,0.433379133,0.322717399
0.0146,0.443478574,0.318341037
0.0147,0.447738558,0.32045234
0.0148,0.446019812,0.329207127
0.0149,0.43891729,0.34392141
0.015,0.427661456,0.363183916
0.0151,0.414036371,0.384949176
0.0152,0.400115059,0.406842554
0.0153,0.387964621,0.426497806
0.0154,0.379383344,0.441856972
0.0155,0.375702429,0.451396613
0.0156,0.377662939,0.454268195
0.0157,0.385371565,0.45034847
0.0158,0.3983311,0.440204547
0.0159,0.415516294,0.425006928
0.016,0.4353117,0.406599946
0.0161,0.455698924,0.387288047
0.0162,0.4745313,0.369522582
0.0163,0.489842466,0.35554914
0.0164,0.500083929,0.347136058
0.0165,0.504285291,0.345391319
0.0166,0.502130724,0.350675146
0.0167,0.493953766,0.362605932
0.0168,0.480659937,0.380148648
0.0169,0.463720971,0.40162026
0.017,0.445109232,0.42476578
0.0171,0.427036354,0.447057425
0.0172,0.411639312,0.466053345
0.0173,0.400706849,0.479710051
0.0174,0.395482726,0.486607105
0.0175,0.396553959,0.486074747
0.0176,0.403825132,0.478223185
0.0177,0.416571792,0.46388154
0.0178,0.433540552,0.444483232
0.0179,0.452874103,0.422151438
0.018,0.472337205,0.399441032
0.0181,0.489655715,0.378951449
0.0182,0.502820638,0.36297928
0.0183,0.510319599,0.353253776
0.0184,0.511284096,0.350768603
0.0185,0.505568808,0.355691032
0.0186,0.493851009,0.367247158
0.0187,0.477498581,0.383872667
0.0188,0.458500395,0.403292983
0.0189,0.439208996,0.422817873
0.019,0.421941757,0.439798587
0.0191,0.408647753,0.452008567
0.0192,0.400721679,0.457855671
0.0193,0.398890942,0.456510925
0.0194,0.403186331,0.44794184
0.0195,0.412972301,0.432877459
0.0196,0.426950101,0.412803334
0.0197,0.44310658,0.390019742
0.0198,0.459081146,0.367223847
0.0199,0.472582407,0.347034711
0.02,0.481677157,0.331663009
0.0201,0.496176804,0.310032129
0.0202,0.507297497,0.2922405
0.0203,0.51160893,0.282240468
0.0204,0.50998435,0.279035603
0.0205,0.503538463,0.281352255
0.0206,0.493594775,0.287677142
0.0207,0.481535675,0.296428982
0.0208,0.468689841,0.306087387
0.0209,0.456249258,0.315287851
0.021,0.445192329,0.322909915
0.0211,0.436126033,0.328258789
0.0212,0.429306281,0.331042189
0.0213,0.42472764,0.331267395
0.0214,0.422195851,0.329158094
0.0215,0.421390085,0.325083044
0.0216,0.421915665,0.319495686
0.0217,0.423347786,0.312884081
0.0218,0.425266653,0.305730695
0.0219,0.427284442,0.298481535
0.022,0.42906463,0.291524027
0.0221,0.430334356,0.285172865
0.0222,0.430890602,0.279662934
0.0223,0.430601098,0.275148257
0.0224,0.429400922,0.271705875
0.0225,0.427306531,0.269319619
0.0226,0.424532085,0.267746005
0.0227,0.421446514,0.26656325
0.0228,0.41847743,0.265281532
0.0229,0.416045538,0.263418253
0.023,0.414476873,0.260598546
0.0231,0.413741048,0.256854334
0.0232,0.413502117,0.252566283
0.0233,0.413292223,0.248265761
0.0234,0.41272928,0.244387575
0.0235,0.411564082,0.241216259
0.0236,0.409655199,0.23891427
0.0237,0.406949827,0.237543544
0.0238,0.403552519,0.236985934
0.0239,0.399757649,0.236905312
0.024,0.395970532,0.236837821
0.0241,0.392623128,0.236288501
0.0242,0.389988373,0.234944824
0.0243,0.388150279,0.232711216
0.0244,0.387046622,0.229660103
0.0245,0.386426058,0.226079483
0.0246,0.385873981,0.222442697
0.0247,0.384907498,0.219300155
0.0248,0.383169892,0.217058784
0.0249,0.380602421,0.215785015
0.025,0.377409666,0.215243961
0.0251,0.373956363,0.215017293
0.0252,0.37067114,0.21461339
0.0253,0.367949005,0.213579124
0.0254,0.365984253,0.211692014
0.0255,0.364783491,0.208945362
0.0256,0.364233165,0.205470667
0.0257,0.364130107,0.20150222
0.0258,0.364109219,0.197458179
0.0259,0.363701485,0.1938741
0.026,0.362458188,0.191261778
0.0261,0.360244736,0.189773966
0.0262,0.357230251,0.189216165
0.0263,0.353771849,0.189178762
0.0264,0.350310615,0.189156006
0.0265,0.347283698,0.188646642
0.0266,0.344945666,0.187359262
0.0267,0.343357708,0.185224789
0.0268,0.342446056,0.182329355
0.0269,0.34204143,0.178868765
0.027,0.341807765,0.175228371
0.0271,0.341294193,0.171923397
0.0272,0.340044817,0.169474097
0.0273,0.337903446,0.168058051
0.0274,0.335019418,0.167503553
0.0275,0.331731512,0.16742216
0.0276,0.328464299,0.167327222
0.0277,0.325653139,0.166719655
0.0278,0.323564403,0.165294564
0.0279,0.322270055,0.16297054
0.028,0.321691049,0.159839776
0.0281,0.321542099,0.156229507
0.0282,0.32138548,0.152640073
0.0283,0.320723708,0.149639207
0.0284,0.319200081,0.147634433
0.0285,0.316770976,0.14667547
0.0286,0.313662658,0.146503251
0.0287,0.310256966,0.146680592
0.0288,0.305272088,0.148686644
0.0289,0.293267589,0.158793686
0.029,0.276389888,0.174549209
0.0291,0.2565208,0.193803059
0.0292,0.235469006,0.214485794
0.0293,0.214861018,0.234732964
0.0294,0.196091524,0.252942358
0.0295,0.180235308,0.267875797
0.0296,0.167999404,0.278714707
0.0297,0.159709864,0.285075906
0.0298,0.155330729,0.286990425
0.0299,0.154510032,0.284851244
0.03,0.156646061,0.279337746
0.0301,0.160909691,0.271390735
0.0302,0.166221546,0.262239546
0.0303,0.171416371,0.253213693
0.0304,0.175391027,0.245573123
0.0305,0.177329927,0.240251365
0.0306,0.17677467,0.237775694
0.0307,0.173606342,0.238286625
0.0308,0.167992338,0.241597976
0.0309,0.160323316,0.247268469
0.031,0.151143803,0.254680767
0.0311,0.14108159,0.263122048
0.0312,0.130852876,0.271777479
0.0313,0.121217514,0.279781133
0.0314,0.112827598,0.286387508
0.0315,0.106140469,0.291071088
0.0316,0.101395256,0.293553987
0.0317,0.09862685,0.293790763
0.0318,0.097691912,0.291939247
0.0319,0.098248488,0.288384704
0.032,0.099692122,0.283814134
0.0321,0.101318586,0.279029736
0.0322,0.102569867,0.27466639
0.0323,0.103189505,0.271015215
0.0324,0.103187915,0.268063451
0.0325,0.102756865,0.265591832
0.0326,0.102168972,0.263289331
0.0327,0.101586455,0.260972714
0.0328,0.101041509,0.258608951
0.0329,0.100485591,0.256258399
0.033,0.099825194,0.254033568
0.0331,0.098907722,0.252114482
0.0332,0.097463363,0.250813806
0.0333,0.095158874,0.25051529
0.0334,0.09168379,0.251575578
0.0335,0.086932356,0.254115354
0.0336,0.081024398,0.257995428
0.0337,0.074361759,0.262753972
0.0338,0.06743711,0.267826708
0.0339,0.060772822,0.272616554
0.034,0.054816384,0.276612759
0.0341,0.049790651,0.279560444
0.0342,0.045700548,0.281452756
0.0343,0.042398379,0.282456694
0.0344,0.039634388,0.282855658
0.0345,0.037108658,0.282990278
0.0346,0.034442768,0.283291521
0.0347,0.031269398,0.284178226
0.0348,0.027395535,0.28587178
0.0349,0.022817232,0.28837921
0.035,0.017668935,0.291550495
0.0351,0.012173219,0.295135558
0.0352,0.0066432,0.298780293
0.0353,0.001393819,0.302125777
0.0354,-0.003253853,0.304803032
0.0355,-0.007114045,0.306596497
0.0356,-0.010184681,0.307500436
0.0357,-0.012609397,0.307675837
0.0358,-0.014621986,0.307386986
0.0359,-0.016570514,0.307029649
0.036,-0.018834331,0.307035977
0.0361,-0.021735311,0.307773238
0.0362,-0.025397869,0.309384891
0.0363,-0.027199575,0.308907536
0.0364,-0.01741677,0.295351734
0.0365,0.00149782,0.271523197
0.0366,0.026976907,0.240357179
0.0367,0.055813752,0.205518573
0.0368,0.084617273,0.170880683
0.0369,0.110344621,0.139917476
0.037,0.130566829,0.115400433
0.0371,0.143659387,0.099181119
0.0372,0.148896688,0.092083518
0.0373,0.146446791,0.093910189
0.0374,0.137274998,0.103552553
0.0375,0.122992068,0.119164641
0.0376,0.105745475,0.138288757
0.0377,0.088018728,0.158084214
0.0378,0.072325626,0.175675875
0.0379,0.060948324,0.188452796
0.038,0.055644882,0.194402604
0.0381,0.057333702,0.192473395
0.0382,0.065929401,0.182760045
0.0383,0.080427471,0.166407047
0.0384,0.098999064,0.145501474
0.0385,0.119298092,0.12272235
0.0386,0.138733949,0.101027582
0.0387,0.154905875,0.083158453
0.0388,0.165900909,0.071299387
0.0389,0.170540398,0.066795832
0.039,0.168560185,0.069947175
0.0391,0.160537197,0.08009074
0.0392,0.147769336,0.095739947
0.0393,0.132157545,0.114720544
0.0394,0.115968873,0.134440415
0.0395,0.101547481,0.152219146
0.0396,0.091039989,0.165601488
0.0397,0.086006166,0.172803441
0.0398,0.087238579,0.17291836
0.0399,0.094645813,0.166048709
0.04,0.107324769,0.153223393
0.0401,0.123642929,0.13630534
0.0402,0.14150477,0.117687396
0.0403,0.158601189,0.100006073
0.0404,0.172716937,0.085790038
0.0405,0.182086949,0.077054001
0.0406,0.18560769,0.075057475
0.0407,0.183023851,0.08009003
0.0408,0.174892653,0.091511786
0.0409,0.162467251,0.107887489
0.041,0.147577512,0.127124241
0.0411,0.132397391,0.146736394
0.0412,0.119142998,0.164190109
0.0413,0.109703215,0.177326062
0.0414,0.105418605,0.184612177
0.0415,0.10696737,0.185273464
0.0416,0.114231421,0.179443528
0.0417,0.126354229,0.168098498
0.0418,0.141804808,0.152985573
0.0419,0.158623785,0.136342201
0.042,0.174652081,0.120633572
0.0421,0.187904848,0.108126147
0.0422,0.196799503,0.100627095
0.0423,0.200323596,0.099292565
0.0424,0.198228254,0.104405369
0.0425,0.191012687,0.115392364
0.0426,0.179831745,0.130930898
0.0427,0.166389621,0.14907182
0.0428,0.15272267,0.167486768
0.0429,0.140912805,0.18379525
0.043,0.132731808,0.195971708
0.0431,0.129430977,0.202586006
0.0432,0.131634009,0.202925367
0.0433,0.139205811,0.197142752
0.0434,0.151308942,0.186192407
0.0435,0.166462525,0.171764203
0.0436,0.182716747,0.156083856
0.0437,0.197953384,0.141569092
0.0438,0.210251914,0.130412163
0.0439,0.218134045,0.124300736
0.044,0.220695011,0.124267703
0.0441,0.217677351,0.130606528
0.0442,0.209577341,0.142748335
0.0443,0.197580077,0.159336543
0.0444,0.183432812,0.178373259
0.0445,0.169236313,0.197456673
0.0446,0.157125308,0.214145978
0.0447,0.148894974,0.226388944
0.0448,0.145791877,0.232760908
0.0449,0.148408907,0.232584367
0.045,0.156559275,0.226071439
0.0451,0.169339899,0.214251472
0.0452,0.185198164,0.19889642
0.0453,0.202114285,0.182312071
0.0454,0.217915467,0.166978719
0.0455,0.230646866,0.155128149
0.0456,0.238811883,0.148469284
0.0457,0.241497969,0.148044204
0.0458,0.238452137,0.154141528
0.0459,0.230186822,0.166174161
0.046,0.217913008,0.182756181
0.0461,0.20341058,0.201852645
0.0462,0.188816096,0.221021083
0.0463,0.176230684,0.237859948
0.0464,0.167436087,0.250333166
0.0465,0.163694826,0.256998461
0.0466,0.165636663,0.257136748
0.0467,0.173123817,0.250904654
0.0468,0.1853024,0.239275788
0.0469,0.200658948,0.223977766
0.047,0.217199223,0.207287539
0.0471,0.232760981,0.191673678
0.0472,0.245384542,0.179373814
0.0473,0.253554154,0.172119056
0.0474,0.256327,0.170986369
0.0475,0.253412766,0.176307318
0.0476,0.245283944,0.187540745
0.0477,0.233113347,0.203344649
0.0478,0.218648314,0.221721583
0.0479,0.204001418,0.240256802
0.048,0.191260271,0.256564521
0.0481,0.182203977,0.268612012
0.0482,0.178102671,0.27494864
0.0483,0.179617117,0.274820412
0.0484,0.186659977,0.268327046
0.0485,0.198426678,0.25638657
0.0486,0.213433261,0.240693533
0.0487,0.229697864,0.223511303
0.0488,0.245071499,0.207293983
0.0489,0.257601069,0.194272429
0.049,0.265755387,0.186196012
0.0491,0.268561697,0.184176448
0.0492,0.265691624,0.188589276
0.0493,0.25757759,0.198939571
0.0494,0.24535575,0.213927637
0.0495,0.230744515,0.231589488
0.0496,0.215838181,0.249531655
0.0497,0.202789544,0.265293617
0.0498,0.193432362,0.276779982
0.0499,0.189062913,0.282510233
0.05,0.190348332,0.281723222
0.0501,0.197192797,0.274528586
0.0502,0.208773447,0.26186554
0.0503,0.223583002,0.245455623
0.0504,0.239615563,0.227590049
0.0505,0.254690043,0.210759879
0.0506,0.266823273,0.197230552
0.0507,0.274470952,0.188766732
0.0508,0.276662254,0.186478289
0.0509,0.273083596,0.190724265
0.051,0.264191878,0.200982201
0.0511,0.251153682,0.215918092
0.0512,0.235719914,0.233531292
0.0513,0.220015713,0.251393579
0.0514,0.206202181,0.267035592
0.0515,0.196111109,0.278364912
0.0516,0.191043392,0.283896394
0.0517,0.191671721,0.282863142
0.0518,0.197904796,0.275370192
0.0519,0.20892181,0.262354954
0.052,0.223214299,0.245540845
0.0521,0.238835595,0.227152665
0.0522,0.253631023,0.209652382
0.0523,0.265618483,0.195305155
0.0524,0.273226111,0.185907893
0.0525,0.275440232,0.182620074
0.0526,0.271907857,0.18584624
0.0527,0.263050163,0.195105109
0.0528,0.249994029,0.209108422
0.0529,0.234454453,0.225896949
0.053,0.218508547,0.243097925
0.0531,0.204298876,0.258263645
0.0532,0.19366764,0.269290151
0.0533,0.18793649,0.274668951
0.0534,0.187790889,0.273618719
0.0535,0.193142523,0.266240995
0.0536,0.203181557,0.253460526
0.0537,0.216433734,0.236961679
0.0538,0.230999443,0.218915633
0.0539,0.244775753,0.201725467
0.054,0.255824611,0.187606248
0.0541,0.262596795,0.178329127
0.0542,0.264097627,0.175032084
0.0543,0.26007986,0.177998237
0.0544,0.25104804,0.186650775
0.0545,0.238166946,0.199658401
0.0546,0.223137081,0.215078965
0.0547,0.207962152,0.230624067
0.0548,0.194655201,0.243994629
0.0549,0.184905096,0.2532626
0.055,0.179897099,0.257075942
0.0551,0.180208801,0.254777121
0.0552,0.185681535,0.246548549
0.0553,0.195441161,0.233389217
0.0554,0.207974532,0.21702889
0.0555,0.221415044,0.199601782
0.0556,0.23374512,0.183414054
0.0557,0.243147867,0.170542845
0.0558,0.248212887,0.162601115
0.0559,0.248104974,0.160544817
0.056,0.242739042,0.164471719
0.0561,0.232778862,0.173623303
0.0562,0.219561739,0.186472503
0.0563,0.204831535,0.201028588
0.0564,0.190537513,0.21506608
0.0565,0.178562445,0.226435292
0.0566,0.17041535,0.233414081
0.0567,0.167073828,0.234887937
0.0568,0.168812473,0.230544536
0.0569,0.175182506,0.22089706
0.057,0.185028552,0.207266473
0.0571,0.196719986,0.191517395
0.0572,0.208429958,0.175739073
0.0573,0.218342204,0.162008417
0.0574,0.224961077,0.152036679
0.0575,0.227232618,0.147030753
0.0576,0.224740665,0.147467637
0.0577,0.217776587,0.153015125
0.0578,0.207266172,0.162616122
0.0579,0.194635803,0.174642478
0.058,0.181550235,0.187194299
0.0581,0.169747462,0.198287769
0.0582,0.160685022,0.206260329
0.0583,0.155418485,0.209909232
0.0584,0.154445308,0.208668106
0.0585,0.157610747,0.202714728
0.0586,0.164152923,0.192920279
0.0587,0.17280649,0.180731805
0.0588,0.182051969,0.167887113
0.0589,0.190277167,0.156229462
0.059,0.196123476,0.147313366
0.0591,0.19865541,0.142211222
0.0592,0.197439998,0.141422148
0.0593,0.19266292,0.144737741
0.0594,0.185107466,0.151266569
0.0595,0.17593864,0.159680885
0.0596,0.166500521,0.168448186
0.0597,0.158125924,0.176048712
0.0598,0.152025271,0.18110197
0.0599,0.148995634,0.182700596
0.06,0.149237502,0.180618584
0.0601,0.152402512,0.175256138
0.0602,0.157650929,0.167574737
0.0603,0.163856373,0.158863227
0.0604,0.169793432,0.15052348
0.0605,0.174324952,0.143856643
0.0606,0.176586356,0.139853134
0.0607,0.176092063,0.139071371
0.0608,0.172859857,0.14149414
0.0609,0.167435322,0.146500975
0.061,0.160724782,0.153058882
0.0611,0.153815051,0.159928377
0.0612,0.147806339,0.165854459
0.0613,0.143614335,0.169793285
0.0614,0.141812491,0.171092682
0.0615,0.142492566,0.169650015
0.0616,0.145240087,0.16594055
0.0617,0.149302199,0.160825749
0.0618,0.153746337,0.155372081
0.0619,0.157609449,0.150680605
0.062,0.16013929,0.147612639
0.0621,0.160887667,0.146683508
0.0622,0.159843331,0.147909238
0.0623,0.157388233,0.150855943
0.0624,0.154176216,0.154778435
0.0625,0.1509928,0.158780596
0.0626,0.14862834,0.161960423
0.0627,0.147644238,0.163678396
0.0628,0.148282758,0.163660571
0.0629,0.150375198,0.162101915
0.063,0.153426175,0.159569623
0.0631,0.156757846,0.156838641
